DEPT,TWT,amp,AI_Log,Int,D2,Quadr,TraceGrad,GradMag,Freq,Phase,CosPhase,AI_Jason_inv
1586.1,1158.5,2360.6,8896,2.58,-966.7,-121.8,-166.8,581.6,51.7,-2.9804,0.9551,
1586.2,1158.6,2363.8,8589,2.57,-957.9,-45.4,-186,569.2,51.8,-1.2541,0.9609,
1586.4,1158.7,2366.9,8321,2.55,-949,31,-205.3,556.7,51.9,0.4722,0.9667,
1586.5,1158.7,2370.1,8081,2.54,-940.2,107.3,-224.6,544.3,51.9,2.1985,0.9724,
1586.7,1158.8,2373.3,7828,2.52,-931.4,183.7,-243.9,531.9,52,3.9249,0.9782,
1586.8,1158.9,2376.5,7571,2.51,-922.6,260.1,-263.1,519.4,52.1,5.6512,0.984,
1587,1159,2364.6,7329,2.5,-911.1,331.2,-280.7,523.6,52.1,7.4056,0.9835,
1587.1,1159.1,2325.8,7147,2.5,-894,391.4,-294.8,562.3,52.2,9.2183,0.9698,
1587.3,1159.2,2285.9,7024,2.5,-876.9,451.6,-308.9,601.1,52.2,11.0306,0.9561,
1587.4,1159.3,2246,6895,2.5,-859.8,511.8,-323,639.8,52.2,12.8422,0.9425,
1587.6,1159.4,2206.1,6747,2.5,-842.7,571.9,-337,678.6,52.3,14.6537,0.9288,
1587.8,1159.5,2166.2,6613,2.5,-825.5,632.1,-351.1,717.3,52.3,16.4652,0.9152,
1587.9,1159.6,2126.3,6535,2.5,-808.4,692.2,-365.2,756,52.4,18.2766,0.9015,
1588.1,1159.7,2086.3,6497,2.5,-791.3,752.3,-379.2,794.7,52.4,20.088,0.8879,
1588.2,1159.8,2046.4,6500,2.5,-774.2,812.5,-393.3,833.5,52.4,21.8994,0.8742,
1588.4,1159.9,2006.5,6514,2.5,-757.1,872.6,-407.4,872.2,52.5,23.7108,0.8606,
1588.5,1160,1966.6,6532,2.5,-740,932.8,-421.4,910.9,52.5,25.5221,0.8469,
1588.7,1160.1,1926.8,6522,2.5,-722.9,992.9,-435.5,949.7,52.6,27.3341,0.8333,
1588.8,1160.2,1886.9,6516,2.5,-705.8,1053.1,-449.6,988.5,52.6,29.1466,0.8196,
1589,1160.3,1847,6514,2.5,-688.7,1113.3,-463.7,1027.2,52.7,30.959,0.806,
1589.1,1160.3,1807.1,6479,2.5,-671.7,1173.5,-477.7,1066,52.7,32.7714,0.7923,
1589.3,1160.4,1767.2,6422,2.5,-654.6,1233.7,-491.8,1104.7,52.7,34.5835,0.7786,
1589.4,1160.5,1727.3,6372,2.5,-637.5,1293.8,-505.9,1143.5,52.8,36.3948,0.765,
1589.6,1160.6,1687.4,6311,2.5,-620.4,1354,-519.9,1182.2,52.8,38.2062,0.7513,
1589.7,1160.7,1647.6,6248,2.5,-603.3,1414.1,-534,1220.9,52.9,40.0175,0.7377,
1589.9,1160.8,1607.7,6218,2.5,-586.2,1474.3,-548.1,1259.7,52.9,41.8288,0.7241,
1590,1160.9,1568,6208,2.51,-569.2,1534.2,-562.1,1298.2,53,43.633,0.7105,
1590.2,1161,1527,6191,2.51,-552.2,1592.9,-575.7,1336.1,53,45.4168,0.6969,
1590.3,1161.1,1463.6,6159,2.51,-515.8,1611.8,-576.9,1348.6,53,47.2635,0.6684,
1590.5,1161.2,1398.8,6122,2.51,-479.3,1630.8,-578.1,1361.2,53,49.1102,0.6399,
1590.6,1161.3,1334,6114,2.51,-442.9,1649.8,-579.3,1373.8,53,50.9569,0.6114,
1590.8,1161.4,1269.2,6172,2.51,-406.5,1668.8,-580.4,1386.4,53,52.8036,0.5829,
1591,1161.5,1204.5,6248,2.52,-370.1,1687.8,-581.6,1399,53,54.6503,0.5544,
1591.1,1161.6,1139.7,6347,2.52,-333.7,1706.7,-582.8,1411.6,53,56.4971,0.5259,
1591.3,1161.6,1074.9,6484,2.52,-297.3,1725.7,-584,1424.2,53,58.3438,0.4974,
1591.4,1161.7,1010.1,6637,2.52,-260.8,1744.7,-585.1,1436.8,53,60.1906,0.4689,
1591.6,1161.8,945.4,6687,2.52,-224.4,1763.7,-586.3,1449.4,53,62.0373,0.4404,
1591.7,1161.9,880.6,6698,2.53,-188,1782.7,-587.5,1461.9,53,63.8841,0.4119,
1591.9,1162,815.8,6787,2.53,-151.6,1801.7,-588.7,1474.5,53,65.7308,0.3834,
1592,1162.1,751,7076,2.53,-115.2,1820.7,-589.8,1487.1,53.1,67.5775,0.3549,
1592.2,1162.2,686.3,7419,2.53,-78.8,1839.7,-591,1499.7,53.1,69.4242,0.3264,
1592.3,1162.3,621.5,7722,2.54,-42.4,1858.7,-592.2,1512.3,53.1,71.2709,0.2979,
1592.5,1162.4,556.8,7759,2.54,-5.9,1877.6,-593.4,1524.9,53.1,73.1177,0.2694,
1592.6,1162.5,492,7741,2.54,30.5,1896.6,-594.6,1537.5,53.1,74.9644,0.2409,
1592.8,1162.6,427.2,7731,2.54,66.9,1915.6,-595.7,1550.1,53.1,76.8111,0.2124,
1592.9,1162.7,362.5,7704,2.54,103.3,1934.6,-596.9,1562.7,53.1,78.658,0.1839,
1593.1,1162.8,297.7,7668,2.55,139.7,1953.6,-598.1,1575.3,53.1,80.5048,0.1554,
1593.2,1162.9,233,7662,2.55,176.1,1972.7,-599.3,1587.9,53.1,82.3517,0.1269,
1593.4,1162.9,168.2,7670,2.55,212.6,1991.7,-600.5,1600.5,53.1,84.1985,0.0984,
1593.5,1163,107.6,7720,2.55,242.4,1994,-594.3,1602.2,53.1,86.0171,0.0697,
1593.7,1163.1,53.7,8003,2.54,261.6,1969.3,-576.2,1586.3,53,87.7897,0.0407,
1593.8,1163.2,-0.1,8309,2.52,280.7,1944.5,-558.1,1570.3,53,89.5623,0.0116,
1594,1163.3,-54,8534,2.51,299.9,1919.8,-540,1554.4,52.9,91.3348,-0.0175,
1594.2,1163.4,-107.9,8704,2.5,319,1895.1,-521.9,1538.4,52.9,93.1075,-0.0465,
1594.3,1163.5,-161.8,8870,2.49,338.2,1870.3,-503.9,1522.5,52.8,94.8801,-0.0756,
1594.5,1163.6,-215.7,9017,2.48,357.4,1845.6,-485.8,1506.5,52.8,96.6528,-0.1047,
1594.6,1163.7,-269.5,9012,2.47,376.5,1820.9,-467.7,1490.6,52.7,98.4255,-0.1338,
1594.8,1163.8,-323.4,8928,2.46,395.7,1796.2,-449.6,1474.6,52.7,100.1982,-0.1628,
1594.9,1163.9,-377.3,8706,2.44,414.8,1771.5,-431.5,1458.7,52.7,101.9709,-0.1919,
1595.1,1164,-431.2,8462,2.43,434,1746.7,-413.4,1442.8,52.6,103.7436,-0.221,
1595.2,1164.1,-485.1,8260,2.42,453.1,1722,-395.3,1426.8,52.6,105.5163,-0.25,
1595.4,1164.1,-538.9,8166,2.41,472.3,1697.3,-377.2,1410.9,52.5,107.2889,-0.2791,
1595.5,1164.2,-592.8,8183,2.4,491.5,1672.6,-359.1,1394.9,52.5,109.0614,-0.3082,
1595.7,1164.3,-646.7,8053,2.39,510.6,1647.9,-341,1379,52.4,110.8341,-0.3372,
1595.8,1164.4,-700.6,7873,2.38,529.8,1623.2,-322.9,1363,52.4,112.6069,-0.3663,
1596,1164.5,-754.4,7674,2.37,548.9,1598.5,-304.8,1347.1,52.3,114.3797,-0.3954,
1596.1,1164.6,-808.3,7499,2.35,568.1,1573.8,-286.7,1331.2,52.3,116.1526,-0.4245,
1596.3,1164.7,-862.2,7377,2.34,587.2,1549.1,-268.6,1315.2,52.2,117.9258,-0.4535,
1596.4,1164.8,-916.2,7285,2.33,606.4,1524.4,-250.5,1299.3,52.2,119.6992,-0.4826,
1596.6,1164.9,-970.1,7253,2.32,625.6,1499.7,-232.4,1283.4,52.1,121.4726,-0.5117,
1596.7,1165,-1022.4,7268,2.31,644.7,1475,-214.3,1267.5,52.1,123.2459,-0.5408,
1596.9,1165.1,-1055.4,7337,2.29,649.7,1435.1,-199,1244,52,124.9527,-0.5611,
1597,1165.2,-1079.3,7408,2.27,650,1390.2,-184.7,1218,51.9,126.6374,-0.5786,
1597.2,1165.3,-1103.2,7551,2.25,650.2,1345.2,-170.3,1192,51.8,128.3222,-0.596,
1597.4,1165.3,-1127,7685,2.23,650.5,1300.3,-155.9,1165.9,51.7,130.0068,-0.6135,
1597.5,1165.4,-1150.9,7732,2.22,650.7,1255.3,-141.5,1139.9,51.6,131.6914,-0.6309,
1597.7,1165.5,-1174.8,7706,2.2,650.9,1210.4,-127.2,1113.9,51.5,133.3761,-0.6483,
1597.8,1165.6,-1198.7,7575,2.18,651.2,1165.5,-112.8,1087.9,51.4,135.0608,-0.6658,
1598,1165.7,-1222.6,7484,2.16,651.4,1120.5,-98.4,1061.9,51.3,136.7455,-0.6832,
1598.1,1165.8,-1246.5,7489,2.14,651.7,1075.6,-84.1,1035.9,51.2,138.4305,-0.7007,
1598.3,1165.9,-1270.4,7561,2.12,651.9,1030.6,-69.7,1009.9,51.1,140.1155,-0.7181,
1598.4,1166,-1294.3,7655,2.1,652.2,985.7,-55.3,983.9,51,141.8006,-0.7355,
1598.6,1166.1,-1318.3,7724,2.08,652.4,940.7,-41,957.9,50.9,143.4859,-0.753,
1598.7,1166.2,-1342.2,7896,2.06,652.7,895.8,-26.6,931.9,50.8,145.1711,-0.7704,
1598.9,1166.3,-1366.1,8035,2.04,652.9,850.8,-12.2,905.9,50.7,146.856,-0.7879,
1599,1166.4,-1390,8069,2.03,653.1,805.9,2.2,879.8,50.6,148.5408,-0.8053,
1599.2,1166.5,-1413.9,8041,2.01,653.4,760.9,16.5,853.8,50.5,150.2257,-0.8227,
1599.3,1166.5,-1437.8,8019,1.99,653.6,715.9,30.9,827.8,50.4,151.9112,-0.8402,
1599.5,1166.6,-1461.7,7996,1.97,653.9,671,45.3,801.8,50.3,153.5971,-0.8576,
1599.6,1166.7,-1485.7,7968,1.95,654.2,626,59.6,775.8,50.2,155.2829,-0.8751,
1599.8,1166.8,-1509.6,7871,1.93,654.4,581,74,749.8,50.1,156.9687,-0.8925,
1599.9,1166.9,-1533.5,7805,1.91,654.7,536,88.4,723.8,50,158.6543,-0.91,
1600.1,1167,-1553.3,7781,1.89,653.7,491.1,102.3,700.4,49.8,158.3508,-0.9254,
1600.2,1167.1,-1547.5,7776,1.88,644.2,446.3,112.5,696.1,49.7,143.3303,-0.9262,
1600.4,1167.2,-1541.1,7786,1.86,634.6,401.5,122.8,691.8,49.5,128.3097,-0.927,
1600.6,1167.3,-1534.8,7806,1.85,625.1,356.8,133,687.4,49.4,113.2891,-0.9277,
1600.7,1167.4,-1528.4,7840,1.84,615.5,312,143.3,683.1,49.2,98.2686,-0.9285,
1600.9,1167.5,-1522.1,7914,1.82,606,267.2,153.5,678.8,49.1,83.2482,-0.9293,
1601,1167.6,-1515.7,8137,1.81,596.4,222.4,163.8,674.5,48.9,68.2278,-0.93,
1601.2,1167.7,-1509.4,8441,1.79,586.9,177.7,174,670.1,48.7,53.2074,-0.9308,
1601.3,1167.8,-1503,8754,1.78,577.3,132.9,184.3,665.8,48.6,38.1871,-0.9316,
1601.5,1167.8,-1496.6,8983,1.77,567.8,88.1,194.5,661.5,48.4,23.1668,-0.9323,
1601.6,1167.9,-1490.3,9104,1.75,558.2,43.3,204.8,657.2,48.3,8.1466,-0.9331,
1601.8,1168,-1483.9,9214,1.74,548.6,-1.5,215,652.8,48.1,-6.8736,-0.9338,
1601.9,1168.1,-1477.5,9392,1.72,539.1,-46.3,225.3,648.5,47.9,-21.8939,-0.9346,
1602.1,1168.2,-1471.1,9504,1.71,529.5,-91.1,235.6,644.2,47.8,-36.9143,-0.9353,
1602.2,1168.3,-1464.8,9508,1.69,520,-135.9,245.8,639.9,47.6,-51.9346,-0.9361,
1602.4,1168.4,-1458.4,9438,1.68,510.4,-180.7,256.1,635.5,47.5,-66.9549,-0.9368,
1602.5,1168.5,-1452,9391,1.67,500.9,-225.5,266.3,631.2,47.3,-81.9752,-0.9376,
1602.7,1168.6,-1445.6,9373,1.65,491.3,-270.3,276.6,626.9,47.1,-96.9953,-0.9383,
1602.8,1168.7,-1439.2,9385,1.64,481.7,-315.1,286.8,622.6,47,-112.0154,-0.9391,
1603,1168.8,-1432.8,9485,1.62,472.2,-359.9,297.1,618.2,46.8,-127.0354,-0.9398,
1603.1,1168.9,-1426.4,9520,1.61,462.6,-404.8,307.4,613.9,46.7,-142.0555,-0.9406,
1603.3,1169,-1420,9390,1.6,453.1,-449.6,317.6,609.6,46.5,-157.0756,-0.9413,
1603.4,1169,-1403.4,9300,1.59,438.2,-485.4,321.8,616.4,46.3,-163.9531,-0.9351,
1603.6,1169.1,-1376.3,9337,1.59,418,-511.9,319.7,634.6,46.1,-162.4784,-0.9218,
1603.8,1169.2,-1349.2,9371,1.58,397.7,-538.4,317.7,652.8,45.9,-161.0036,-0.9085,
1603.9,1169.3,-1322.1,9260,1.58,377.5,-565,315.6,671,45.7,-159.5285,-0.8951,
1604.1,1169.4,-1294.9,9106,1.58,357.2,-591.5,313.6,689.2,45.5,-158.0534,-0.8818,
1604.2,1169.5,-1267.8,8951,1.58,336.9,-618,311.5,707.4,45.3,-156.5784,-0.8685,
1604.4,1169.6,-1240.6,8851,1.58,316.7,-644.6,309.5,725.6,45.1,-155.1036,-0.8551,
1604.5,1169.7,-1213.5,8867,1.57,296.4,-671.1,307.4,743.8,44.9,-153.6291,-0.8418,
1604.7,1169.8,-1186.3,8889,1.57,276.1,-697.6,305.4,762,44.7,-152.1547,-0.8284,
1604.8,1169.9,-1159.2,8962,1.57,255.9,-724.1,303.3,780.1,44.5,-150.6804,-0.8151,
1605,1170,-1132,9103,1.57,235.6,-750.6,301.2,798.3,44.4,-149.206,-0.8018,
1605.1,1170.1,-1104.9,9179,1.57,215.3,-777.2,299.2,816.5,44.2,-147.7313,-0.7884,
1605.3,1170.2,-1077.7,9179,1.56,195.1,-803.7,297.1,834.7,44,-146.2562,-0.7751,
1605.4,1170.2,-1050.5,9171,1.56,174.8,-830.2,295.1,852.9,43.8,-144.7812,-0.7617,
1605.6,1170.3,-1023.3,9116,1.56,154.5,-856.8,293,871,43.6,-143.3061,-0.7484,
1605.7,1170.4,-996.1,9079,1.56,134.2,-883.3,291,889.2,43.4,-141.8311,-0.735,
1605.9,1170.5,-969,9183,1.56,114,-909.8,289,907.4,43.2,-140.3559,-0.7216,
1606,1170.6,-941.8,9216,1.55,93.7,-936.4,286.9,925.6,43,-138.8805,-0.7083,
1606.2,1170.7,-914.6,9053,1.55,73.4,-962.9,284.9,943.7,42.8,-137.4048,-0.6949,
1606.3,1170.8,-887.3,8901,1.55,53.1,-989.5,282.8,961.9,42.6,-135.9291,-0.6816,
1606.5,1170.9,-860.1,8879,1.55,32.8,-1016,280.8,980.1,42.4,-134.4534,-0.6682,
1606.7,1171,-832.9,8787,1.55,12.5,-1042.6,278.7,998.2,42.2,-132.9779,-0.6548,
1606.8,1171.1,-805.3,8624,1.55,5.1,-1051.1,270.8,1010.5,42,-131.7457,-0.6378,
1607,1171.2,-777.6,8547,1.55,-0.3,-1056.9,261.9,1021.8,41.8,-130.5504,-0.6202,
1607.1,1171.3,-749.9,8682,1.55,-5.8,-1062.7,253,1033.2,41.6,-129.3551,-0.6026,
1607.3,1171.4,-722.3,8789,1.56,-11.2,-1068.4,244.1,1044.5,41.4,-128.1597,-0.585,
1607.4,1171.5,-694.6,8847,1.56,-16.7,-1074.2,235.2,1055.9,41.3,-126.9642,-0.5675,
1607.6,1171.5,-666.9,8911,1.56,-22.2,-1080,226.3,1067.2,41.1,-125.7684,-0.5499,
1607.7,1171.6,-639.1,8943,1.56,-27.6,-1085.8,217.4,1078.6,40.9,-124.5725,-0.5323,
1607.9,1171.7,-611.4,8933,1.57,-33.1,-1091.6,208.5,1089.9,40.7,-123.3765,-0.5147,
1608,1171.8,-583.7,8918,1.57,-38.6,-1097.3,199.6,1101.3,40.6,-122.1805,-0.4971,
1608.2,1171.9,-556,8928,1.57,-44.1,-1103.1,190.7,1112.6,40.4,-120.9843,-0.4795,
1608.3,1172,-528.2,9105,1.57,-49.5,-1108.9,181.8,1124,40.2,-119.7882,-0.4619,
1608.5,1172.1,-500.5,9292,1.58,-55,-1114.7,172.9,1135.3,40,-118.5922,-0.4443,
1608.6,1172.2,-472.8,9484,1.58,-60.5,-1120.4,164,1146.7,39.8,-117.3962,-0.4267,
1608.8,1172.3,-445,9434,1.58,-66,-1126.2,155.1,1158.1,39.7,-116.2002,-0.4091,
1608.9,1172.4,-417.3,9308,1.59,-71.5,-1131.9,146.2,1169.4,39.5,-115.0041,-0.3915,
1609.1,1172.5,-389.5,9179,1.59,-77,-1137.7,137.3,1180.8,39.3,-113.8083,-0.3739,
1609.2,1172.6,-361.8,9129,1.59,-82.4,-1143.4,128.4,1192.1,39.1,-112.6128,-0.3563,
1609.4,1172.7,-334,9105,1.59,-87.9,-1149.2,119.5,1203.5,38.9,-111.4175,-0.3387,
1609.5,1172.7,-306.3,8971,1.6,-93.4,-1154.9,110.6,1214.8,38.8,-110.2219,-0.3211,
1609.7,1172.8,-278.5,8767,1.6,-98.9,-1160.7,101.8,1226.2,38.6,-109.0257,-0.3035,
1609.9,1172.9,-250.7,8628,1.6,-104.4,-1166.4,92.9,1237.5,38.4,-107.8289,-0.2859,
1610,1173,-224.1,8510,1.6,-109.2,-1169.5,85.1,1247.3,38.2,-106.6405,-0.2681,
1610.2,1173.1,-201.4,8388,1.6,-111.7,-1164.3,81,1252.3,38.1,-105.4783,-0.2498,
1610.3,1173.2,-178.6,8315,1.6,-114.2,-1159.1,76.9,1257.2,38,-104.3165,-0.2315,
1610.5,1173.3,-155.8,8320,1.59,-116.7,-1153.9,72.8,1262.1,37.9,-103.1548,-0.2133,
1610.6,1173.4,-133.1,8433,1.59,-119.2,-1148.6,68.6,1267,37.8,-101.9932,-0.195,
1610.8,1173.5,-110.3,8532,1.59,-121.7,-1143.4,64.5,1271.9,37.7,-100.8315,-0.1767,
1610.9,1173.6,-87.5,8562,1.58,-124.2,-1138.2,60.4,1276.8,37.6,-99.6695,-0.1584,
1611.1,1173.7,-64.7,8583,1.58,-126.7,-1132.9,56.2,1281.7,37.5,-98.5076,-0.1401,
1611.2,1173.8,-42,8550,1.58,-129.2,-1127.6,52.1,1286.6,37.4,-97.3458,-0.1219,
1611.4,1173.9,-19.2,8487,1.57,-131.7,-1122.4,47.9,1291.5,37.3,-96.1839,-0.1036,
1611.5,1173.9,3.6,8397,1.57,-134.3,-1117.1,43.8,1296.4,37.2,-95.0218,-0.0853,
1611.7,1174,26.4,8317,1.57,-136.8,-1111.9,39.7,1301.3,37.1,-93.8597,-0.067,
1611.8,1174.1,49.2,8248,1.56,-139.3,-1106.6,35.5,1306.2,37,-92.6976,-0.0487,
1612,1174.2,72,8187,1.56,-141.8,-1101.3,31.4,1311.1,36.9,-91.5357,-0.0305,
1612.1,1174.3,94.8,8137,1.56,-144.4,-1096,27.2,1316,36.7,-90.3737,-0.0122,
1612.3,1174.4,117.6,8096,1.55,-146.9,-1090.8,23.1,1320.9,36.6,-89.2118,0.0061,
1612.4,1174.5,140.4,8061,1.55,-149.4,-1085.5,18.9,1325.8,36.5,-88.0497,0.0244,
1612.6,1174.6,163.2,8078,1.55,-152,-1080.2,14.8,1330.7,36.4,-86.8875,0.0427,
1612.7,1174.7,186,8174,1.54,-154.5,-1074.9,10.6,1335.6,36.3,-85.7249,0.0609,
1612.9,1174.8,208.9,8382,1.54,-157.1,-1069.6,6.4,1340.5,36.2,-84.5618,0.0792,
1613.1,1174.9,231.7,8463,1.54,-159.6,-1064.3,2.3,1345.4,36.1,-83.3984,0.0975,
1613.2,1175,254.5,8293,1.53,-162.2,-1059,-1.9,1350.3,36,-82.2346,0.1158,
1613.4,1175.1,272.8,8153,1.53,-161.4,-1048.8,-5.1,1347.4,35.9,-81.1044,0.1325,
1613.5,1175.1,288.1,8049,1.52,-158.7,-1035.6,-7.7,1339.7,35.9,-79.995,0.1481,
1613.7,1175.2,303.4,7979,1.52,-155.9,-1022.3,-10.4,1331.9,35.9,-78.8858,0.1638,
1613.8,1175.3,318.7,7948,1.51,-153.1,-1009.1,-13,1324.2,35.9,-77.7771,0.1794,
1614,1175.4,334,7969,1.5,-150.3,-995.8,-15.7,1316.4,35.8,-76.6686,0.195,
1614.1,1175.5,349.3,8035,1.5,-147.5,-982.6,-18.3,1308.6,35.8,-75.5604,0.2106,
1614.3,1175.6,364.6,8095,1.49,-144.7,-969.3,-20.9,1300.9,35.8,-74.4521,0.2262,
1614.4,1175.7,379.9,8086,1.48,-141.9,-956,-23.6,1293.1,35.8,-73.3436,0.2418,
1614.6,1175.8,395.2,8051,1.47,-139.1,-942.7,-26.2,1285.3,35.7,-72.2348,0.2574,
1614.7,1175.9,410.5,8059,1.47,-136.3,-929.5,-28.9,1277.6,35.7,-71.1261,0.273,
1614.9,1176,425.8,8169,1.46,-133.4,-916.2,-31.5,1269.8,35.7,-70.0177,0.2886,
1615,1176.1,441.1,8290,1.45,-130.6,-902.9,-34.2,1262,35.6,-68.9093,0.3042,
1615.2,1176.2,456.3,8353,1.45,-127.8,-889.5,-36.8,1254.2,35.6,-67.8011,0.3198,
1615.3,1176.3,471.6,8368,1.44,-125,-876.3,-39.5,1246.4,35.6,-66.693,0.3354,
1615.5,1176.4,486.9,8372,1.43,-122.2,-863,-42.1,1238.7,35.6,-65.5852,0.351,
1615.6,1176.4,502.2,8384,1.43,-119.3,-849.6,-44.8,1230.9,35.5,-64.4772,0.3666,
1615.8,1176.5,517.4,8363,1.42,-116.5,-836.3,-47.4,1223.1,35.5,-63.3692,0.3822,
1615.9,1176.6,532.7,8332,1.41,-113.7,-823,-50.1,1215.3,35.5,-62.2613,0.3978,
1616.1,1176.7,548,8327,1.41,-110.8,-809.7,-52.7,1207.5,35.5,-61.1532,0.4134,
1616.3,1176.8,563.3,8341,1.4,-108,-796.4,-55.4,1199.8,35.4,-60.0448,0.429,
1616.4,1176.9,578.5,8359,1.39,-105.2,-783,-58,1192,35.4,-58.9361,0.4446,
1616.6,1177,593.1,8364,1.39,-102.3,-769.7,-60.7,1184.2,35.4,-57.8272,0.4601,
1616.7,1177.1,604.4,8312,1.38,-99.6,-756.2,-54.8,1171.8,35.4,-56.8443,0.4706,
1616.9,1177.2,615,8229,1.38,-96.9,-742.7,-48.9,1159.3,35.5,-55.8625,0.4809,
1617,1177.3,625.5,8132,1.37,-94.1,-729.2,-43,1146.8,35.5,-54.8812,0.4913,
1617.2,1177.4,636.1,8038,1.37,-91.4,-715.7,-37.1,1134.4,35.5,-53.9002,0.5017,
1617.3,1177.5,646.6,7947,1.36,-88.7,-702.3,-31.1,1121.9,35.6,-52.9194,0.512,
1617.5,1177.6,657.2,7865,1.36,-85.9,-688.8,-25.2,1109.4,35.6,-51.9384,0.5224,
1617.6,1177.6,667.7,7814,1.35,-83.2,-675.3,-19.3,1096.9,35.7,-50.957,0.5328,
1617.8,1177.7,678.2,7786,1.35,-80.5,-661.7,-13.3,1084.5,35.7,-49.9755,0.5431,
1617.9,1177.8,688.8,7789,1.34,-77.7,-648.2,-7.4,1072,35.7,-48.9939,0.5535,
1618.1,1177.9,699.3,7755,1.34,-75,-634.7,-1.5,1059.5,35.8,-48.0123,0.5638,
1618.2,1178,709.8,7690,1.33,-72.3,-621.2,4.4,1047,35.8,-47.0303,0.5742,
1618.4,1178.1,720.4,7602,1.33,-69.6,-607.7,10.4,1034.5,35.9,-46.0484,0.5845,
1618.5,1178.2,730.9,7524,1.32,-66.8,-594.1,16.3,1022.1,35.9,-45.0667,0.5949,
1618.7,1178.3,741.4,7454,1.32,-64.1,-580.6,22.2,1009.6,36,-44.0854,0.6052,
1618.8,1178.4,751.9,7385,1.31,-61.4,-567.1,28.1,997.1,36,-43.1044,0.6156,
1619,1178.5,762.4,7310,1.31,-58.6,-553.5,34,984.6,36,-42.1235,0.6259,
1619.1,1178.6,772.9,7243,1.3,-55.9,-540,40,972.1,36.1,-41.1422,0.6363,
1619.3,1178.7,783.4,7192,1.3,-53.2,-526.4,45.9,959.6,36.1,-40.1605,0.6466,
1619.5,1178.8,793.9,7149,1.29,-50.5,-512.9,51.8,947.1,36.2,-39.1784,0.6569,
1619.6,1178.8,804.4,7116,1.29,-47.7,-499.3,57.7,934.6,36.2,-38.1959,0.6673,
1619.8,1178.9,814.9,7094,1.28,-45,-485.7,63.6,922.1,36.2,-37.2134,0.6776,
1619.9,1179,824.7,7084,1.28,-46.6,-469.8,67.9,912.3,36.3,-36.107,0.6871,
1620.1,1179.1,833.2,7091,1.28,-55.6,-449.9,69.4,907.1,36.4,-34.7853,0.695,
1620.2,1179.2,841.7,7108,1.28,-64.6,-430,70.8,902,36.5,-33.4635,0.7029,
1620.4,1179.3,850.2,7118,1.28,-73.6,-410.1,72.2,896.8,36.6,-32.1412,0.7108,
1620.5,1179.4,858.7,7125,1.28,-82.6,-390.2,73.7,891.7,36.7,-30.8186,0.7188,
1620.7,1179.5,867.2,7140,1.28,-91.6,-370.2,75.1,886.6,36.8,-29.4963,0.7267,
1620.8,1179.6,875.7,7149,1.27,-100.6,-350.3,76.5,881.4,36.9,-28.1743,0.7346,
1621,1179.7,884.2,7147,1.27,-109.6,-330.4,77.9,876.3,37.1,-26.8526,0.7425,
1621.1,1179.8,892.6,7147,1.27,-118.6,-310.4,79.4,871.1,37.2,-25.5309,0.7504,
1621.3,1179.9,901.1,7146,1.27,-127.6,-290.5,80.8,866,37.3,-24.2091,0.7583,
1621.4,1180,909.5,7147,1.27,-136.6,-270.6,82.2,860.9,37.4,-22.8874,0.7662,
1621.6,1180.1,917.9,7190,1.27,-145.5,-250.6,83.6,855.7,37.5,-21.5659,0.7741,
1621.7,1180.1,926.4,7236,1.27,-154.5,-230.7,85.1,850.6,37.6,-20.2443,0.7819,
1621.9,1180.2,934.8,7282,1.27,-163.5,-210.8,86.5,845.4,37.7,-18.9228,0.7898,
1622,1180.3,943.3,7328,1.27,-172.4,-190.8,87.9,840.3,37.8,-17.6013,0.7977,
1622.2,1180.4,951.7,7361,1.27,-181.4,-170.9,89.3,835.2,37.9,-16.2799,0.8056,
1622.3,1180.5,960.1,7383,1.27,-190.4,-150.9,90.8,830.1,38,-14.9584,0.8134,
1622.5,1180.6,968.5,7387,1.27,-199.3,-131,92.2,824.9,38.1,-13.6372,0.8213,
1622.7,1180.7,976.9,7384,1.27,-208.3,-111,93.6,819.8,38.2,-12.3164,0.8292,
1622.8,1180.8,985.3,7379,1.27,-217.2,-91.1,95,814.7,38.3,-10.9954,0.837,
1623,1180.9,993.7,7373,1.27,-226.2,-71.1,96.4,809.5,38.4,-9.674,0.8449,
1623.1,1181,1001.8,7361,1.27,-235.1,-51.2,97.8,804.4,38.5,-8.3525,0.8527,
1623.3,1181.1,1002.4,7342,1.27,-237.6,-29.2,95.9,807.4,38.7,-7.0458,0.8538,
1623.4,1181.2,999.8,7308,1.28,-237.7,-6.4,92.7,813.2,38.8,-5.7442,0.8524,
1623.6,1181.3,997.2,7272,1.28,-237.8,16.3,89.5,819.1,38.9,-4.4423,0.851,
1623.7,1181.3,994.6,7234,1.28,-238,39.1,86.3,824.9,39,-3.1404,0.8496,
1623.9,1181.4,992,7203,1.29,-238.1,61.9,83.2,830.8,39.2,-1.8385,0.8483,
1624,1181.5,989.3,7190,1.29,-238.2,84.6,80,836.6,39.3,-0.5367,0.8469,
1624.2,1181.6,986.7,7183,1.29,-238.3,107.4,76.8,842.5,39.4,0.7652,0.8455,
1624.3,1181.7,984.1,7173,1.3,-238.4,130.1,73.6,848.3,39.6,2.0668,0.8441,
1624.5,1181.8,981.4,7164,1.3,-238.6,152.9,70.5,854.2,39.7,3.3681,0.8427,
1624.6,1181.9,978.8,7159,1.3,-238.7,175.6,67.3,860,39.8,4.6693,0.8413,
1624.8,1182,976.2,7150,1.31,-238.8,198.3,64.2,865.9,40,5.9709,0.8399,
